Wavelength (nm),Normalized Intensity
200.0,0.0005420245227647309
200.1,0.0006916268432422558
200.2,0.0008384277701736094
200.29999999999998,0.0009661526753655914
200.39999999999998,0.0010591629219478106
200.49999999999997,0.0011059688083104458
200.59999999999997,0.0011020599567580496
200.69999999999996,0.0010511206605469225
200.79999999999995,0.0009641988081229985
200.89999999999995,0.000857084016864244
200.99999999999994,0.0007467386104382521
201.09999999999994,0.0006478781057271486
201.19999999999993,0.0005706382189889828
201.29999999999993,0.0005197946860863833
201.39999999999992,0.000495434334129447
201.49999999999991,0.0004945304930383622
201.5999999999999,0.0005126914427252307
201.6999999999999,0.0005454503725882959
201.7999999999999,0.0005887732874388539
201.8999999999999,0.0006388444664004712
201.9999999999999,0.000691503818367293
202.09999999999988,0.0007418434138041702
202.19999999999987,0.0007843728171802723
202.29999999999987,0.0008138727411818052
202.39999999999986,0.0008266959324978177
202.49999999999986,0.0008220079559187578
202.59999999999985,0.0008024237682733664
202.69999999999985,0.0007737209084301654
202.79999999999984,0.0007436965757130915
202.89999999999984,0.0007205924415028163
202.99999999999983,0.000711654080421438
203.09999999999982,0.0007222495812470375
203.19999999999982,0.0007556309718013456
203.2999999999998,0.0008130843000603897
203.3999999999998,0.000894081814637385
203.4999999999998,0.0009962041489848543
203.5999999999998,0.0011149463623831718
203.6999999999998,0.0012438336087181759
203.79999999999978,0.0013753222081846837
203.89999999999978,0.0015026575964600998
203.99999999999977,0.0016223131665976723
204.09999999999977,0.0017361152470756072
204.19999999999976,0.0018519700946466571
204.29999999999976,0.0019824265610793104
204.39999999999975,0.0021410886568117593
204.49999999999974,0.0023378621592584164
204.59999999999974,0.002574761459899545
204.69999999999973,0.002844111363596977
204.79999999999973,0.003130250025460199
204.89999999999972,0.0034144351514254472
204.99999999999972,0.003681137455364124
205.0999999999997,0.003923047111108503
205.1999999999997,0.004142508198509662
205.2999999999997,0.004348713265926024
205.3999999999997,0.0045520689344188845
205.4999999999997,0.004758516815815625
205.59999999999968,0.004966405478400649
205.69999999999968,0.005166840775726534
205.79999999999967,0.005346362737940192
205.89999999999966,0.005489697352320149
205.99999999999966,0.005580947710023702
206.09999999999965,0.005603431229019915
206.19999999999965,0.005540022634521243
206.29999999999964,0.0053759962690731345
206.39999999999964,0.005104726047289889
206.49999999999963,0.0047342559160771
206.59999999999962,0.004291341978926733
206.69999999999962,0.003820164897682844
206.7999999999996,0.0033752747759770193
206.8999999999996,0.0030110676330082392
206.9999999999996,0.0027715895207971776
207.0999999999996,0.002683913512180146
207.1999999999996,0.002756190780555015
207.29999999999959,0.002979111072519772
207.39999999999958,0.0033283380585447777
207.49999999999957,0.0037661291336979767
207.59999999999957,0.004242277911041608
207.69999999999956,0.004696381678183582
207.79999999999956,0.005063878163710407
207.89999999999955,0.005286791326648782
207.99999999999955,0.005327355016479762
208.09999999999954,0.005180183533424208
208.19999999999953,0.004877934735360941
208.29999999999953,0.004487052013699121
208.39999999999952,0.004093521727012315
208.49999999999952,0.0037821631080771374
208.5999999999995,0.0036153078323147387
208.6999999999995,0.0036170499664184095
208.7999999999995,0.003767638415209212
208.8999999999995,0.004009703539498241
208.9999999999995,0.004264708869581561
209.09999999999948,0.004455131490506573
209.19999999999948,0.00452615980114194
209.29999999999947,0.004460729867069134
209.39999999999947,0.004283640120493999
209.49999999999946,0.004053769046419951
209.59999999999945,0.0038469736471644224
209.69999999999945,0.003734840916216776
209.79999999999944,0.0037653085004828958
209.89999999999944,0.003950209622237542
209.99999999999943,0.00426258480200583
210.09999999999943,0.0046439132476849936
210.19999999999942,0.00501892632236346
210.29999999999941,0.005313875359326764
210.3999999999994,0.0054734177322364715
210.4999999999994,0.005471889778859322
210.5999999999994,0.00531655684257333
210.6999999999994,0.005042904999082237
210.7999999999994,0.004704264471041625
210.89999999999938,0.004359215983483594
210.99999999999937,0.004060049127375561
211.09999999999937,0.00384440750672332
211.19999999999936,0.0037309317570214094
211.29999999999936,0.0037188179248673473
211.39999999999935,0.003790870545217103
211.49999999999935,0.003919524686557736
211.59999999999934,0.004075029174295228
211.69999999999933,0.004234393973306828
211.79999999999933,0.0043890643747922335
211.89999999999932,0.004549043614526839
211.99999999999932,0.0047416788270408
212.0999999999993,0.0050045662272832515
212.1999999999993,0.005373707241228854
212.2999999999993,0.005869661019700286
212.3999999999993,0.006485483480634945
212.4999999999993,0.007180334248984365
212.59999999999928,0.007881594659221777
212.69999999999928,0.008496270515043291
212.79999999999927,0.008929772973306709
212.89999999999927,0.009107610866042889
212.99999999999926,0.008993990477302287
213.09999999999926,0.008601576266283535
213.19999999999925,0.007988967529952307
213.29999999999924,0.007246234784530674
213.39999999999924,0.006472831992587278
213.49999999999923,0.005754792754335053
213.59999999999923,0.0051482310044740805
213.69999999999922,0.004673731890541052
213.79999999999922,0.004322258997500947
213.8999999999992,0.004069331138412166
213.9999999999992,0.003891862808055787
214.0999999999992,0.003781853789200509
214.1999999999992,0.0037527617223873707
214.2999999999992,0.0038369993189343366
214.39999999999918,0.004075596652856137
214.49999999999918,0.004503027809997799
214.59999999999917,0.005131316452384044
214.69999999999916,0.005937834751896014
214.79999999999916,0.006860694321426954
214.89999999999915,0.007804186712981851
214.99999999999915,0.00865433635365466
215.09999999999914,0.009301647702070665
215.19999999999914,0.009665462059520468
215.29999999999913,0.009713153583001847
215.39999999999912,0.009468498007957868
215.49999999999912,0.00900679534333888
215.5999999999991,0.008438501983571892
215.6999999999991,0.00788649856631114
215.7999999999991,0.00746339095279459
215.8999999999991,0.007254259952382039
215.9999999999991,0.007307995049695433
216.09999999999908,0.0076380599602034315
216.19999999999908,0.008231942911374815
216.29999999999907,0.009067378837518314
216.39999999999907,0.010131951813859733
216.49999999999906,0.011440627023785814
216.59999999999906,0.013043969799398425
216.69999999999905,0.015019988387510508
216.79999999999905,0.017446161493907403
216.89999999999904,0.020355283040214205
216.99999999999903,0.02368719972442138
217.09999999999903,0.027254661505367147
217.19999999999902,0.030741568895913812
217.29999999999902,0.03374394306717066
217.399999999999,0.03584944548629988
217.499999999999,0.036735375749938355
217.599999999999,0.03625484349777304
217.699999999999,0.03448185253635737
217.799999999999,0.031699144042806646
217.89999999999898,0.028332663205449297
217.99999999999898,0.024854631211602526
218.09999999999897,0.021685629218877945
218.19999999999897,0.01912220585433741
218.29999999999896,0.017303805946839022
218.39999999999895,0.016218252971745624
218.49999999999895,0.01573480587163432
218.59999999999894,0.015650448052730293
218.69999999999894,0.015737186769217672
218.79999999999893,0.015782534160802632
218.89999999999893,0.015619294093047274
218.99999999999892,0.015143255926775616
219.09999999999891,0.014318784547886817
219.1999999999989,0.01317341894402809
219.2999999999989,0.011783864440607006
219.3999999999989,0.010256949648737091
219.4999999999989,0.008709639509516639
219.5999999999989,0.007251652384814958
219.69999999999888,0.005972763821795788
219.79999999999887,0.004935149356246132
219.89999999999887,0.0041699169549809095
219.99999999999886,0.003676758147088369
220.09999999999886,0.0034262505055004627
220.19999999999885,0.0033651250840852943
220.29999999999885,0.0034250418503147737
220.39999999999884,0.003534734975595492
220.49999999999883,0.0036340324516449768
220.59999999999883,0.0036869229017493085
220.69999999999882,0.0036903086968300557
220.79999999999882,0.0036757539416598464
220.8999999999988,0.003703230414883525
220.9999999999988,0.003847952323978228
221.0999999999988,0.004183162895043512
221.1999999999988,0.00476276031589428
221.2999999999988,0.0056078615345119785
221.39999999999878,0.006700903684628692
221.49999999999878,0.007989687583466154
221.59999999999877,0.00940175600177773
221.69999999999877,0.01086668642245707
221.79999999999876,0.012340784806007995
221.89999999999876,0.013826422929247392
221.99999999999875,0.015378202637049886
222.09999999999874,0.017091026938120844
222.19999999999874,0.019070559733092927
222.29999999999873,0.021392745829449684
222.39999999999873,0.024063743114434665
222.49999999999872,0.026992938322480304
222.59999999999872,0.029989030538794793
222.6999999999987,0.03278316946426928
222.7999999999987,0.03507551312030116
222.8999999999987,0.036594496586145366
222.9999999999987,0.037153764414694604
223.0999999999987,0.03669173153575228
223.19999999999868,0.03528343727061657
223.29999999999868,0.033122329349980086
223.39999999999867,0.030478029555587437
223.49999999999866,0.02764199998144778
223.59999999999866,0.024874674596710812
223.69999999999865,0.022365346670809867
223.79999999999865,0.020211586996340323
223.89999999999864,0.018419989984962803
223.99999999999864,0.016925610216241997
224.09999999999863,0.01562388713553187
224.19999999999862,0.014406468433579792
224.29999999999862,0.013191779357593738
224.3999999999986,0.01194304208281525
224.4999999999986,0.01067053029431933
224.5999999999986,0.009419844327342282
224.6999999999986,0.008252010199247407
224.7999999999986,0.0072227595151547405
224.89999999999858,0.0063671584328556085
224.99999999999858,0.005692780469717341
225.09999999999857,0.005181386939305434
225.19999999999857,0.004796825736984416
225.29999999999856,0.004496012038638996
225.39999999999856,0.004240084177908307
225.49999999999855,0.004003500712371435
225.59999999999854,0.0037795075081174033
225.69999999999854,0.00358099551279936
225.79999999999853,0.003436486098670322
225.89999999999853,0.003381958167264063
225.99999999999852,0.0034503166538568603
226.09999999999852,0.003661080325220559
226.1999999999985,0.004012921518619579
226.2999999999985,0.004480905826148167
226.3999999999985,0.005018958710587993
226.4999999999985,0.00556679151857981
226.5999999999985,0.006059740528082095
226.69999999999848,0.006439849730498145
226.79999999999848,0.006666828393456631
226.89999999999847,0.00672786117686053
226.99999999999847,0.006645400860996708
227.09999999999846,0.006482025493939342
227.19999999999845,0.006341290726231546
227.29999999999845,0.006363293237969875
227.39999999999844,0.006713415496448115
227.49999999999844,0.007562740453213126
227.59999999999843,0.009059608113590276
227.69999999999843,0.011294470030441251
227.79999999999842,0.014264487994212411
227.8999999999984,0.017848569601899997
227.9999999999984,0.021804818789812754
228.0999999999984,0.02579814398376826
228.1999999999984,0.02945598177237013
228.2999999999984,0.03243836649648223
228.39999999999839,0.034500878980102005
228.49999999999838,0.03553029489179156
228.59999999999837,0.03554349518992922
228.69999999999837,0.034655398058728144
228.79999999999836,0.033033447047565494
228.89999999999836,0.03085850682150042
228.99999999999835,0.028304368714313584
229.09999999999835,0.025535601100210137
229.19999999999834,0.022713555847386806
229.29999999999833,0.019998007995835655
229.39999999999833,0.017537291470429227
229.49999999999832,0.0154487984576902
229.59999999999832,0.013798979379863848
229.6999999999983,0.012593945895934143
229.7999999999983,0.01178805602296839
229.8999999999983,0.011310745647867717
229.9999999999983,0.011104790322137783
230.0999999999983,0.011165077259127472
230.19999999999828,0.011567177325893574
230.29999999999828,0.012478816664077318
230.39999999999827,0.014152342697702274
230.49999999999827,0.016899566684263914
230.59999999999826,0.021050357479710242
230.69999999999825,0.026894203637724136
230.79999999999825,0.03460341421508946
230.89999999999824,0.044141842137874934
230.99999999999824,0.05517503932138212
231.09999999999823,0.06701202859824515
231.19999999999823,0.07861606117750285
231.29999999999822,0.08871253828722712
231.39999999999822,0.0959941425444105
231.4999999999982,0.09938445240664852
231.5999999999982,0.09828905110682262
231.6999999999982,0.09275503965916845
231.7999999999982,0.0834837534605191
231.8999999999982,0.07168955032823619
231.99999999999818,0.058849257244831296
232.09999999999818,0.046419521093267434
232.19999999999817,0.035599984359365185
232.29999999999816,0.027192045023407874
232.39999999999816,0.021562284943223695
232.49999999999815,0.018686197117795508
232.59999999999815,0.01823425340185011
232.69999999999814,0.019668864604786725
232.79999999999814,0.022337335483554693
232.89999999999813,0.0255595613516732
232.99999999999812,0.02871205115184235
233.09999999999812,0.0313029896570983
233.1999999999981,0.033024612244404214
233.2999999999981,0.03376809226950402
233.3999999999981,0.03359573237738399
233.4999999999981,0.03268081814041631
233.5999999999981,0.03123763851744018
233.69999999999808,0.029465389258527163
233.79999999999808,0.027519506851198153
233.89999999999807,0.025509132898482337
233.99999999999807,0.02350881426857659
234.09999999999806,0.02157125927590823
234.19999999999806,0.01973435328071033
234.29999999999805,0.018023517113257028
234.39999999999804,0.016454169686194422
234.49999999999804,0.015037145252111805
234.59999999999803,0.013785423335020384
234.69999999999803,0.01271776070843041
234.79999999999802,0.01185593558922361
234.89999999999802,0.01121615556911082
234.999999999998,0.010798721843285454
235.099999999998,0.010580939348461922
235.199999999998,0.010516361206408621
235.299999999998,0.010540416849459168
235.399999999998,0.010580215819666346
235.49999999999798,0.010565686761130995
235.59999999999798,0.010439759987088102
235.69999999999797,0.01016607440996524
235.79999999999797,0.009733133786762053
235.89999999999796,0.00915412500392412
235.99999999999795,0.008462234447565772
236.09999999999795,0.007702424479872517
236.19999999999794,0.006921819076678101
236.29999999999794,0.006161352530612794
236.39999999999793,0.0054507245234054
236.49999999999793,0.004807246004042728
236.59999999999792,0.004237668112750243
236.6999999999979,0.003741356453539985
236.7999999999979,0.0033134485884940817
236.8999999999979,0.0029474988233919685
236.9999999999979,0.0026378582626830943
237.0999999999979,0.002382165797867143
237.19999999999789,0.0021838527175832537
237.29999999999788,0.002053915226740397
237.39999999999787,0.0020108717146239932
237.49999999999787,0.0020780354967785005
237.59999999999786,0.0022779235201216825
237.69999999999786,0.002624536354964933
237.79999999999785,0.0031151284453216203
237.89999999999785,0.0037237280559789553
237.99999999999784,0.004398840340791835
238.09999999999783,0.005067225932752468
238.19999999999783,0.005644258697308611
238.29999999999782,0.006049344381627507
238.39999999999782,0.006222890817688879
238.4999999999978,0.00614026115083741
238.5999999999978,0.005818673876093588
238.6999999999978,0.005315108286748671
238.7999999999978,0.004716134645876474
238.8999999999978,0.004123040067143662
238.99999999999778,0.003636728207732868
239.09999999999778,0.00334637314736642
239.19999999999777,0.0033241083085683355
239.29999999999777,0.0036258170819845567
239.39999999999776,0.004295938425179599
239.49999999999775,0.005372484828059498
239.59999999999775,0.00688760406411467
239.69999999999774,0.008859661958800575
239.79999999999774,0.011275660918103772
239.89999999999773,0.014067777923196715
239.99999999999773,0.017093328760737932
240.09999999999772,0.020130513714746407
240.19999999999771,0.022899815768002305
240.2999999999977,0.025112075612047112
240.3999999999977,0.026532010097908926
240.4999999999977,0.027036296197042533
240.5999999999977,0.026644241567114257
240.6999999999977,0.025508470293296778
240.79999999999768,0.023869094535787012
240.89999999999768,0.021989574984942292
240.99999999999767,0.020098422854639565
241.09999999999766,0.018355455178328175
241.19999999999766,0.01684809117505973
241.29999999999765,0.015609550543942596
241.39999999999765,0.014643497554928712
241.49999999999764,0.013941177612190976
241.59999999999764,0.013485036505084678
241.69999999999763,0.013242003565407261
241.79999999999762,0.01315521981688982
241.89999999999762,0.013142869797155557
241.9999999999976,0.013108017572027985
242.0999999999976,0.012957089573474061
242.1999999999976,0.012620174075137013
242.2999999999976,0.012065483377639578
242.3999999999976,0.011303013655023248
242.49999999999758,0.010376959153410165
242.59999999999758,0.00935061491821528
242.69999999999757,0.008289683095678868
242.79999999999757,0.007249517780348759
242.89999999999756,0.0062694307774631185
242.99999999999756,0.0053739615672366335
243.09999999999755,0.00457835436809832
243.19999999999754,0.003894364064497471
243.29999999999754,0.0033331884536356325
243.39999999999753,0.0029042890828506673
243.49999999999753,0.0026111214883299816
243.59999999999752,0.0024463415075293812
243.69999999999752,0.002389312696845541
243.7999999999975,0.002407762169069942
243.8999999999975,0.0024637786164627214
243.9999999999975,0.0025227613860159055
244.0999999999975,0.0025629935673683797
244.1999999999975,0.002583421890692766
244.29999999999748,0.0026077762056500677
244.39999999999748,0.002683919356151658
244.49999999999747,0.002877920178226802
244.59999999999746,0.00326275762007609
244.69999999999746,0.0039021499010887576
244.79999999999745,0.004831233176088
244.89999999999745,0.006037774124137469
244.99999999999744,0.007449577783840203
245.09999999999744,0.00893433658059859
245.19999999999743,0.01031602270313031
245.29999999999742,0.011406881639576812
245.39999999999742,0.012047776906168671
245.4999999999974,0.012145035162456673
245.5999999999974,0.011691777896509081
245.6999999999974,0.010766724585274855
245.7999999999974,0.009511606685294832
245.8999999999974,0.008095869190349738
245.99999999999739,0.006680833836412179
246.09999999999738,0.005393770797615609
246.19999999999737,0.004316874458440585
246.29999999999737,0.0034899907077644036
246.39999999999736,0.0029218125370451807
246.49999999999736,0.0026032605583370893
246.59999999999735,0.0025183090294349747
246.69999999999735,0.002650147800334964
246.79999999999734,0.0029829387191192803
246.89999999999733,0.003500815889127014
246.99999999999733,0.004186075936441217
247.09999999999732,0.005017916568498648
247.19999999999732,0.0059719726909723365
247.2999999999973,0.007019785019121652
247.3999999999973,0.008126859606167224
247.4999999999973,0.009248655442775578
247.5999999999973,0.010325631139725951
247.6999999999973,0.011280523405956196
247.79999999999728,0.012021892117221385
247.89999999999728,0.012456498640102327
247.99999999999727,0.012509348275634838
248.09999999999727,0.012145820194785458
248.19999999999726,0.011387654899228437
248.29999999999725,0.010315507722942879
248.39999999999725,0.009055327570549136
248.49999999999724,0.007752012456023824
248.59999999999724,0.006538717989670456
248.69999999999723,0.005511608812455625
248.79999999999723,0.004717310487771398
248.89999999999722,0.00415525286909121
248.99999999999721,0.003791826929014741
249.0999999999972,0.003579845179891658
249.1999999999972,0.003476148651317989
249.2999999999972,0.0034520802017988707
249.3999999999972,0.003494871660982108
249.4999999999972,0.0036014407692414787
249.59999999999718,0.0037685311756402145
249.69999999999717,0.0039838971146859406
249.79999999999717,0.004222268318256221
249.89999999999716,0.004447634596918725
249.99999999999716,0.004620861024725738
250.09999999999715,0.004709751677087763
250.19999999999715,0.004698079308248989
